# radius [cm] density [g/cm^3] velocity [cm/s] pressure [erg/cm^3] temperature [K] luminosity [erg/cm^3/s]
6.808751272422105540e+05 4.700139718207948685e+09 -2.896597558336423244e+05 3.724418339982079670e+27 8.810815250430421829e+09 4.123474594627379169e-02
8.578773130408962024e+05 4.699206369005188942e+09 -3.649594746192394523e+05 3.723466661237117504e+27 8.810668702885604858e+09 8.011707123173732181e-02
1.080918206284146290e+06 4.698094709239560127e+09 -4.598437966567838448e+05 3.722333755220371130e+27 8.810499215420732498e+09 1.600349187581425747e-01
1.361995005352437729e+06 4.696330275020734787e+09 -5.794151769918722566e+05 3.720535780005453639e+27 8.810230529798782349e+09 3.204622216043517269e-01
1.716254552497049328e+06 4.693530046764296532e+09 -7.301146496366140200e+05 3.717682711612568321e+27 8.809803559609916687e+09 6.418007294929988227e-01
2.162843230024137069e+06 4.689086559833453178e+09 -9.200819463141891174e+05 3.713156379229992988e+27 8.809125024633127213e+09 1.283793612007943841e+00
2.726009299232892692e+06 4.682036877498596191e+09 -1.159621288910403615e+06 3.705977900490945281e+27 8.808048171289283752e+09 2.586521320388900147e+00
3.234293316174648236e+06 4.673331045276301384e+09 -1.375797634086184204e+06 3.697116649717366679e+27 8.806707920231189728e+09 4.329324812349849338e+00
3.619867829942654353e+06 4.664942760895114899e+09 -1.539770549941454548e+06 3.688582952300663353e+27 8.805411627963090897e+09 6.043653435761745740e+00
4.211499885417580605e+06 4.653704146071553230e+09 -1.791345077477053041e+06 3.677157536837475873e+27 8.803680310317710876e+09 9.521879091822226471e+00
5.058726164857153781e+06 4.634400707886180878e+09 -2.151534144057979342e+06 3.657552372603639820e+27 8.800698475375507355e+09 1.651394575182635904e+01
6.212189208597218618e+06 4.602306212806353569e+09 -2.641758544871937018e+06 3.625009793765623124e+27 8.795717574662885666e+09 3.070430378596796572e+01
7.735207076654847711e+06 4.550164229542536736e+09 -3.288704764360294677e+06 3.572281421914139679e+27 8.787538468379732132e+09 5.957040269974853430e+01
9.716474536389237270e+06 4.466749473847407341e+09 -4.129583854092282243e+06 3.488297078227939215e+27 8.774241366424068451e+09 1.202530919434381502e+02
1.199294536868068203e+07 4.346781520559651375e+09 -5.094497689362018369e+06 3.368296217757790146e+27 8.754383336075071335e+09 2.257689865208608353e+02
1.387093437951651402e+07 4.216780945728688240e+09 -5.889337360909435898e+06 3.239354030583928930e+27 8.732259815561849594e+09 3.547391609648706208e+02
1.598646441099708155e+07 4.071785454823858261e+09 -6.783210410595987923e+06 3.096894007126118673e+27 8.706480571759702682e+09 5.399322989376927353e+02
1.885936886318514124e+07 3.868641456157835484e+09 -7.994153732778469101e+06 2.899824557511264944e+27 8.669166192498186111e+09 8.891698690375195611e+02
2.074372494288747758e+07 3.675004416464932919e+09 -8.786399695491274819e+06 2.714725618588372524e+27 8.630916430377668381e+09 1.146101200598674950e+03
2.229239080493887141e+07 3.525465231619524956e+09 -9.436206085391875356e+06 2.573766794730587404e+27 8.600826383584873199e+09 1.452654403213242858e+03
2.332278783281247690e+07 3.411380931692549229e+09 -9.867839189630046487e+06 2.467345049614809233e+27 8.576214876353425026e+09 1.694451719534999711e+03
2.557835184559696540e+07 3.256436765289925575e+09 -1.081045557550359890e+07 2.324447482045401333e+27 8.541075018135848045e+09 2.062204238968196933e+03
2.661555756883817539e+07 3.110306341136041641e+09 -1.124292562447041087e+07 2.191559402570271658e+27 8.507674566132642746e+09 2.457637614140466667e+03
2.775543033806490898e+07 3.010237562951143742e+09 -1.171735329765797593e+07 2.101514885762118698e+27 8.482484887923201561e+09 2.756283077350972690e+03
2.919085465062902123e+07 2.891794390637429237e+09 -1.231345207565613836e+07 1.996054941374949552e+27 8.451520704027681351e+09 3.039856808193009329e+03
3.114604295530692860e+07 2.736560869013205528e+09 -1.312293753675726801e+07 1.859818139455269671e+27 8.410469489389704704e+09 3.644981000172553649e+03
3.196436407274045795e+07 2.615851212572930813e+09 -1.346080738136063144e+07 1.755340711239110174e+27 8.375631198989470482e+09 3.768351171488025102e+03
3.249939747108338773e+07 2.556522895606549263e+09 -1.368141328846764565e+07 1.704534125557660827e+27 8.358600071275316238e+09 4.198073434085315967e+03
3.326779344350031391e+07 2.499396049812096596e+09 -1.399776370706769824e+07 1.655873978584062683e+27 8.340717207276453972e+09 4.259836331804648580e+03
3.460121066137804836e+07 2.407847182976592064e+09 -1.454805481121734530e+07 1.578624540831217570e+27 8.312496131551161766e+09 4.364009387839117153e+03
3.542190459670696408e+07 2.317385116791893005e+09 -1.488590410554205440e+07 1.503211701347207716e+27 8.285108566427966118e+09 5.038799200836792807e+03
3.643554605422504246e+07 2.240935882974144459e+09 -1.530211771760190465e+07 1.440029912304933778e+27 8.258999308594043732e+09 5.032245734399677531e+03
3.826033214739288390e+07 2.124103216177226067e+09 -1.604853644366033562e+07 1.344816647466252789e+27 8.220252343166449547e+09 5.482295156413707446e+03
3.898713056160415709e+07 2.025276165147366762e+09 -1.634478655771055445e+07 1.265435789518410779e+27 8.185653694541970253e+09 5.899151043751321595e+03
4.042185810142873973e+07 1.941571825953297138e+09 -1.692763825045392662e+07 1.199046458058425658e+27 8.154629148116718292e+09 6.133831014444010179e+03
4.104255670134919882e+07 1.865788807268846750e+09 -1.717898976105961949e+07 1.139663585818396877e+27 8.125845881040661812e+09 5.737117410432466386e+03
4.183562061931832880e+07 1.813970322346187115e+09 -1.749950808164245635e+07 1.099550172304731628e+27 8.107656084941927910e+09 7.392133978751170616e+03
4.252543866339759529e+07 1.761212590916044712e+09 -1.777746149424495548e+07 1.058832900521430060e+27 8.083792302615200996e+09 6.537131665968672678e+03
4.414588870411969721e+07 1.679765418869579315e+09 -1.842786595579528436e+07 9.969157991676659345e+26 8.051593596333616257e+09 6.776402360909583876e+03
4.484837052097055316e+07 1.602527175526520252e+09 -1.870872148028768227e+07 9.389990672159468476e+26 8.020001476291108131e+09 8.276717760646261013e+03
4.549078491855275631e+07 1.558765958815643549e+09 -1.896477296104110777e+07 9.063990787764315487e+26 7.998125276800061226e+09 7.086031481305622947e+03
4.628593788381510228e+07 1.512648733398956776e+09 -1.928088170858761296e+07 8.724868573501749525e+26 7.978512171006779671e+09 8.304483814870709466e+03
4.731535334130156040e+07 1.455811767858333349e+09 -1.968843511011225358e+07 8.309612496402468985e+26 7.950071940481635094e+09 6.192526647708954442e+03
4.796565174072467536e+07 1.404915225208027124e+09 -1.994530532215899229e+07 7.944457210073225251e+26 7.931181812659847260e+09 9.831844367008870904e+03
4.856345844298864156e+07 1.368350804651582956e+09 -2.018061657166610658e+07 7.681516630517885102e+26 7.909345426435591698e+09 8.882573457889584461e+03
4.957747233798157424e+07 1.321848217795416832e+09 -2.057822768419146538e+07 7.351277649383903524e+26 7.884333732408015251e+09 8.225439700248402005e+03
5.072961775522748381e+07 1.261403602062288284e+09 -2.102798360656188056e+07 6.928182691741674546e+26 7.854150117296483994e+09 9.275116069491066810e+03
5.155161167490837723e+07 1.208741255696474075e+09 -2.134734588598608226e+07 6.563332661639978154e+26 7.824175981212859154e+09 6.624830225245926158e+03
5.213524071769887209e+07 1.171986509390867233e+09 -2.157367252806514129e+07 6.313556717934584460e+26 7.809315259096230507e+09 1.212711267610472350e+04
5.287443012332127988e+07 1.138757782252614975e+09 -2.185905386465595663e+07 6.085988626820337884e+26 7.784186077355281830e+09 8.567310470787311715e+03
5.402069749833438545e+07 1.092100111493045807e+09 -2.229994494166244566e+07 5.773269236681182496e+26 7.759450807283027649e+09 1.022424006541515701e+04
5.468607267342086136e+07 1.049408459073869228e+09 -2.255472113598755002e+07 5.489195441803041593e+26 7.731973946795479774e+09 1.240431299166906138e+04
5.523461806724949181e+07 1.021715745644763827e+09 -2.276395245605489612e+07 5.305623604857986079e+26 7.710096451318498611e+09 7.991970053407600062e+03
5.652535857492765784e+07 9.800564553605597019e+08 -2.325482303522430733e+07 5.035820095207852615e+26 7.689168807561522484e+09 1.180618604979551310e+04
5.726970170226882398e+07 9.367370575088398457e+08 -2.353629522948729619e+07 4.755767871405594610e+26 7.656096168982813835e+09 1.010744838670399258e+04
5.801973408591224253e+07 9.056882404188843966e+08 -2.381900732407423109e+07 4.558407946497597602e+26 7.635820539248291969e+09 1.087740699461412441e+04
5.915640705938445032e+07 8.677759663496693373e+08 -2.424556711305639893e+07 4.319655765536598581e+26 7.608958307577180862e+09 1.289027402801509925e+04
5.997034424684490263e+07 8.305324225368381739e+08 -2.454930654064926133e+07 4.086825028708329750e+26 7.577042242909048080e+09 1.095842405700305062e+04
6.084109268946781754e+07 7.992453063868708611e+08 -2.487305285306669027e+07 3.894687985524877377e+26 7.554238826400053024e+09 1.155156899610335495e+04
6.156186971931188554e+07 7.707723396868324280e+08 -2.514006832606214285e+07 3.721492531856475693e+26 7.532120135976408005e+09 1.338923244378467643e+04
6.266229637738680840e+07 7.393827063467488289e+08 -2.554566977332426608e+07 3.531874023382946389e+26 7.503536438218067169e+09 1.350664106211229773e+04
6.346394436947367340e+07 7.080165964706166983e+08 -2.583963476957158744e+07 3.344752676193659822e+26 7.474304511726110458e+09 1.483380502178106508e+04
6.437672182768911868e+07 6.808233157106055021e+08 -2.617263115666976199e+07 3.184037851519942208e+26 7.446162865774574280e+09 1.354525178311744821e+04
6.534349321993684769e+07 6.520118161241608858e+08 -2.652364042002856359e+07 3.016501378943503080e+26 7.418782851086871147e+09 1.744909700495427751e+04
6.590499190717419982e+07 6.297413613934648037e+08 -2.672654528708923981e+07 2.887327865022063098e+26 7.390868201284944534e+09 1.567258449819892849e+04
6.697933621986958385e+07 6.063940472627511024e+08 -2.711272191555957869e+07 2.754218227818169576e+26 7.364682773450949669e+09 1.998914377259572575e+04
6.742698519464989007e+07 5.857530187833751440e+08 -2.727502155818270892e+07 2.636938052941209349e+26 7.334356420240266800e+09 5.622953059092303192e+03
6.787825123628233373e+07 5.733629853259261847e+08 -2.743471125696834177e+07 2.569268205731029449e+26 7.329420183832314491e+09 -2.798891542694420878e+03
6.807283251774489880e+07 5.644814002992348671e+08 -2.750446874627941102e+07 2.521608248635496962e+26 7.331156721810626030e+09 4.030736944447074166e+03
6.826811323882226646e+07 5.592475223049585819e+08 -2.757418287541941553e+07 2.493338610953125134e+26 7.329663207797464371e+09 3.495425201127396576e+03
6.836601630234175920e+07 5.553561681497370005e+08 -2.760932835274105147e+07 2.472298584614862409e+26 7.328696084305098534e+09 6.607619189209603064e+03
6.846409494082887471e+07 5.527751125239685774e+08 -2.764426627680058777e+07 2.458350450503614609e+26 7.327479891921994209e+09 3.504412720471146895e+04
6.851318721863614023e+07 5.509929693712849617e+08 -2.766181301293933019e+07 2.448086473986012768e+26 7.322648906341851234e+09 2.586867237203835975e+04
6.856231956080782413e+07 5.497549420548816919e+08 -2.767932608937802538e+07 2.441224102127312607e+26 7.320272673012830734e+09 3.214676946805272019e+04
6.858689898357215524e+07 5.488681047728298903e+08 -2.768810406540828198e+07 2.436104727418159584e+26 7.318059114422710419e+09 1.273821736044335921e+04
6.861148904347574711e+07 5.482375074035024643e+08 -2.769685763879824430e+07 2.432660015978916564e+26 7.317474551462169647e+09 3.059080529007501900e+04
6.862378728903597593e+07 5.477995532233407497e+08 -2.770124224569417536e+07 2.430103340700614697e+26 7.316422032310455322e+09 2.282332076777514158e+04
6.863608802137963474e+07 5.474925169653712511e+08 -2.770562448363284767e+07 2.428392705520555053e+26 7.315898593936252594e+09 2.769281484309619918e+04
6.864223922054448724e+07 5.472712268908779621e+08 -2.770781670760647953e+07 2.427113679944814132e+26 7.315422326389924049e+09 1.813032887826413207e+04
6.864839106742537022e+07 5.471155351318559647e+08 -2.771000815216384456e+07 2.426256880308238439e+26 7.315214469902187347e+09 3.576851215597080591e+04
6.865300530422483385e+07 5.469880500177072287e+08 -2.771164629716125131e+07 2.425514354357858597e+26 7.314855683719543457e+09 -1.968624902537803428e+04
6.865761999472634494e+07 5.468607531968506575e+08 -2.771329612122800946e+07 2.424859199605880979e+26 7.315024927070151329e+09 -6.081917632843218744e+05
6.865992819254463911e+07 5.466036437476207018e+08 -2.771410591648547351e+07 2.424218100702348746e+26 7.318943115103738785e+09 -4.305534362315044855e+05
6.866223672613802552e+07 5.464873931131224632e+08 -2.771494375102745742e+07 2.423820839951066608e+26 7.320791155699547768e+09 -5.170551303235195577e+06
6.866358505468139052e+07 5.457758090439206362e+08 -2.771542139420459419e+07 2.422868739008392966e+26 7.338300984072898865e+09 -7.591675987657061778e+06
6.866493459124712646e+07 5.452658393456668854e+08 -2.771591501056311652e+07 2.421924638636244780e+26 7.357168784594931602e+09 -1.518654323171147518e+07
6.866551414274945855e+07 5.441415933467820883e+08 -2.771612055332930014e+07 2.420709007416010184e+26 7.383921890681593895e+09 -1.285504490593644977e+07
6.866609408737157285e+07 5.437635609331482649e+08 -2.771633783924698457e+07 2.420076838767948150e+26 7.397455871213608742e+09 -3.577336254464431852e+07
6.866648177947357297e+07 5.422658981230936050e+08 -2.771648044377600029e+07 2.418728652940168160e+26 7.428620196754497528e+09 -2.033884556517741084e+07
6.866686980319668353e+07 5.417963346424056292e+08 -2.771662474922859669e+07 2.418089897021309417e+26 7.442720123737678528e+09 -1.120392107421511970e+07
6.866764670248059928e+07 5.411930963895276785e+08 -2.771690992371339723e+07 2.417524581285627851e+26 7.454337686606455803e+09 -2.733312973476039246e+06
6.866842379275365174e+07 5.410478404860678911e+08 -2.771720282183323428e+07 2.417258999123837816e+26 7.458105774962685585e+09 -1.385812076804967597e+06
6.866997841931371391e+07 5.408742503676476479e+08 -2.771778202110512555e+07 2.416977081069966950e+26 7.460969289214967728e+09 3.770339036469241546e+04
6.867308770629882812e+07 5.408316262594945431e+08 -2.771894021005355939e+07 2.416659592392561185e+26 7.460813572312856674e+09 3.372098467838958459e+04
6.867930669270098209e+07 5.407223052971532345e+08 -2.772125656118538976e+07 2.416023317739620252e+26 7.460535041843105316e+09 2.667639581460253612e+04
6.868552626869361103e+07 5.405731345604120493e+08 -2.772357295140600577e+07 2.415171918388890220e+26 7.460241271240885735e+09 2.157275424428848783e+04
6.869796727501422167e+07 5.403457423434619904e+08 -2.772820600747065246e+07 2.413891613566796989e+26 7.459884951496854782e+09 1.963114694645813142e+04
6.871041061760704219e+07 5.400486345894207954e+08 -2.773283897840885073e+07 2.412183619448165128e+26 7.459452704370773315e+09 2.905064198321037838e+04
6.873530316483740509e+07 5.396281622074465752e+08 -2.774210188297720253e+07 2.409635950955546324e+26 7.458493402859074593e+09 2.758434915379903759e+04
6.876020518399214745e+07 5.390322673578855991e+08 -2.775136554684508219e+07 2.406239820512396650e+26 7.457279266497467995e+09 2.729121608723254394e+04
6.881003778965540230e+07 5.381380800392043591e+08 -2.776989530859827995e+07 2.401149993767101458e+26 7.455477973336443901e+09 2.612908358365387176e+04
6.885990897442741692e+07 5.369432104775967598e+08 -2.778842906995257735e+07 2.394373118082815834e+26 7.453179986519235611e+09 -1.288347817443579879e+04
6.895980762695239484e+07 5.349385954466536641e+08 -2.782558132814842463e+07 2.384013779049062176e+26 7.454877662076100349e+09 2.653342889153055512e+04
6.919350838001203537e+07 5.309822173956118226e+08 -2.791232245835344121e+07 2.361566995371609505e+26 7.447125575809006691e+09 2.360247452185122893e+04
6.959620243500901759e+07 5.234260793839452863e+08 -2.806132928802342713e+07 2.319255738458078780e+26 7.434065205476265907e+09 3.183505216178419869e+04
6.996751157599388063e+07 5.146074544369961619e+08 -2.819797408212690055e+07 2.269097110584484682e+26 7.412846458079144478e+09 1.775257815257910261e+04
7.072592379372811317e+07 5.013848299856823683e+08 -2.847612177297126874e+07 2.197125041717772279e+26 7.395829287088661194e+09 1.974315892304333829e+04
7.111317429065580666e+07 4.884281209200139046e+08 -2.861758000747857615e+07 2.126890149958917937e+26 7.377004987088357925e+09 3.579503463296791597e+04
7.182854412275631726e+07 4.767401686237813234e+08 -2.887587532727190852e+07 2.061731018583681461e+26 7.344715936939311028e+09 2.700630411194642147e+04
7.250004158219563961e+07 4.619581762803348899e+08 -2.911640969414345175e+07 1.982427379583496082e+26 7.314581437156449318e+09 3.218135110111099129e+04
7.279869732415753603e+07 4.520328286611320972e+08 -2.922302881469794363e+07 1.929059343355158810e+26 7.289883949604014397e+09 6.022781282467924029e+04
7.313920497907878458e+07 4.461016828571212888e+08 -2.934592916260549054e+07 1.895139603456814105e+26 7.259721189436063766e+09 1.250167344190810945e+04
7.348198507646985352e+07 4.390235921659681797e+08 -2.946390785625375062e+07 1.858584870870569559e+26 7.253083197737546921e+09 7.417990278047509766e+12
7.365060374445819855e+07 4.343996409808176756e+08 -2.952211145694594458e+07 1.832715781367287862e+26 7.222036343950426102e+09 1.964706936442692677e+04
7.381980625624030828e+07 4.309196350237926245e+08 -2.957962995382449776e+07 1.815228856757422695e+26 7.216935665046789169e+09 7.148424169723596424e+04
7.415946326997336745e+07 4.263830606837551594e+08 -2.969429183062120527e+07 1.789933215891407182e+26 7.189123880028140068e+09 6.596547919839156384e+04
7.495132037763372064e+07 4.162051886049451232e+08 -2.995379774375407398e+07 1.734663922152495816e+26 7.132391835202103615e+09 6.128318651503854198e+04
7.539442070705726743e+07 4.052939952818909883e+08 -3.009745179575486481e+07 1.676416612579866352e+26 7.075123140932782173e+09 7.522837231494767184e+04
7.574143847774989903e+07 3.986342502764281034e+08 -3.021003406834994256e+07 1.640413584639985460e+26 7.030465157732525826e+09 7.360356207550138060e+04
7.609035359874103963e+07 3.928403920239269733e+08 -3.032306191753623635e+07 1.609288579831955682e+26 6.992112977034696579e+09 7.361770536435379472e+04
7.638489550560243428e+07 3.875631664931337237e+08 -3.041891593231437355e+07 1.581041869207485458e+26 6.956724959065591812e+09 6.814667234799797006e+04
7.696522427374894917e+07 3.804102333641688824e+08 -3.060875657287039980e+07 1.543231477615418373e+26 6.912420633842099190e+09 6.393520863376451598e+04
7.720952989167757332e+07 3.737945079116854072e+08 -3.068934426982333139e+07 1.508463123510204356e+26 6.873278907006661415e+09 6.692755798998246610e+04
7.733205624754396081e+07 3.708881249233903885e+08 -3.072979704411319643e+07 1.493256317347787275e+26 6.855130288296893120e+09 6.534763819459496153e+04
7.739341297385367751e+07 3.694430083614398241e+08 -3.075005643542127684e+07 1.485681661859705997e+26 6.846262595708762169e+09 3.529137477166930330e+04
7.742411866123707592e+07 3.686754068349923491e+08 -3.076019529128290713e+07 1.481837274055913042e+26 6.843868073979638100e+09 -5.952510301723646699e+05
7.743949860474655032e+07 3.678067879228734374e+08 -3.076527177683410794e+07 1.479225771740937010e+26 6.863969711331317902e+09 -9.075088506202645367e+05
7.744719728488932550e+07 3.672812662598596811e+08 -3.076780960556470230e+07 1.477748259029214528e+26 6.879208551527460098e+09 -2.763238166506674141e+06
7.745594013062161207e+07 3.663838847644377351e+08 -3.077066744798477367e+07 1.475968298326174001e+26 6.911989804133034706e+09 -9.122031565582878888e+06
7.746110333458201587e+07 3.642984673690120578e+08 -3.077234334299306944e+07 1.472351893858727580e+26 7.001206298045788765e+09 -4.551509106259818189e+06
7.746731349523116648e+07 3.634053113588898778e+08 -3.077435473620345443e+07 1.470629317710962099e+26 7.036905563319657326e+09 -7.306945659534777515e+05
